tiempo (s) 		 Metodo Euler 		 Metodo RK2 		 Metodo RK4 
0.000000 	 7.853981633974483e-01 	 7.853981633974483e-01 	 7.853981633974483e-01 
0.010000 	 7.853981633974483e-01 	 7.850514459616621e-01 	 7.850514659988954e-01 
0.020000 	 7.847047285258760e-01 	 7.840114138881215e-01 	 7.840116142893609e-01 
0.030000 	 7.833178587827314e-01 	 7.822787889129055e-01 	 7.822793300458359e-01 
0.040000 	 7.812380351866168e-01 	 7.798547751200605e-01 	 7.798558173346554e-01 
0.050000 	 7.784662207741300e-01 	 7.767410605897305e-01 	 7.767427641556000e-01 
0.060000 	 7.750038622602359e-01 	 7.729398196798062e-01 	 7.729423447178171e-01 
0.070000 	 7.708528923473560e-01 	 7.684537159153252e-01 	 7.684572223218202e-01 
0.080000 	 7.660157326635222e-01 	 7.632859054526058e-01 	 7.632905528145906e-01 
0.090000 	 7.604952973025847e-01 	 7.574400410779489e-01 	 7.574459885776620e-01 
0.100000 	 7.542949969321594e-01 	 7.509202766937078e-01 	 7.509276830010486e-01 
0.110000 	 7.474187434277725e-01 	 7.437312722376399e-01 	 7.437402953890018e-01 
0.120000 	 7.398709549845385e-01 	 7.358781989747563e-01 	 7.358889962368896e-01 
0.130000 	 7.316565616507195e-01 	 7.273667450943913e-01 	 7.273794728120212e-01 
0.140000 	 7.227810112206937e-01 	 7.182031215389929e-01 	 7.182179349650196e-01 
0.150000 	 7.132502754182439e-01 	 7.083940679852011e-01 	 7.084111210924348e-01 
0.160000 	 7.030708562947096e-01 	 6.979468588922068e-01 	 6.979663041657221e-01 
0.170000 	 6.922497927604652e-01 	 6.868693095272048e-01 	 6.868912977365522e-01 
0.180000 	 6.807946671624547e-01 	 6.751697818730360e-01 	 6.751944618237077e-01 
0.190000 	 6.687136118151682e-01 	 6.628571903189051e-01 	 6.628847085826377e-01 
0.200000 	 6.560153153875606e-01 	 6.499410070314363e-01 	 6.499715076551219e-01 
0.210000 	 6.427090290440410e-01 	 6.364312669003356e-01 	 6.364648910935231e-01 
0.220000 	 6.288045722338642e-01 	 6.223385719506427e-01 	 6.223754577518332e-01 
0.230000 	 6.143123380201101e-01 	 6.076740951120363e-01 	 6.077143770342105e-01 
0.240000 	 5.992432978369996e-01 	 5.924495832349622e-01 	 5.924933918910232e-01 
0.250000 	 5.836090055626382e-01 	 5.766773592435510e-01 	 5.767248209526228e-01 
0.260000 	 5.674216007934720e-01 	 5.603703233164308e-01 	 5.604215596922151e-01 
0.270000 	 5.506938112068424e-01 	 5.435419529886741e-01 	 5.435970805113366e-01 
0.280000 	 5.334389538990975e-01 	 5.262063020712833e-01 	 5.262654316446125e-01 
0.290000 	 5.156709355888237e-01 	 5.083779982888582e-01 	 5.084412347847110e-01 
0.300000 	 4.974042515779302e-01 	 4.900722395414198e-01 	 4.901396813337328e-01 
0.310000 	 4.786539833676114e-01 	 4.713047887027945e-01 	 4.713765271937013e-01 
0.320000 	 4.594357948316399e-01 	 4.520919668755020e-01 	 4.521680860163441e-01 
0.330000 	 4.397659268560316e-01 	 4.324506450307092e-01 	 4.325312208409569e-01 
0.340000 	 4.196611903618707e-01 	 4.123982339714837e-01 	 4.124833340587994e-01 
0.350000 	 3.991389576369795e-01 	 3.919526725682588e-01 	 3.920423556531193e-01 
0.360000 	 3.782171519121275e-01 	 3.711324142270346e-01 	 3.712267296754878e-01 
0.370000 	 3.569142351285616e-01 	 3.499564115633039e-01 	 3.500553989315622e-01 
0.380000 	 3.352491938557245e-01 	 3.284440992679097e-01 	 3.285477878625732e-01 
0.390000 	 3.132415233310394e-01 	 3.066153751648956e-01 	 3.067237836226426e-01 
0.400000 	 2.909112096074693e-01 	 2.844905794757555e-01 	 2.846037153663505e-01 
0.410000 	 2.682787098090826e-01 	 2.620904723191984e-01 	 2.622083317756241e-01 
0.420000 	 2.453649305099429e-01 	 2.394362094904338e-01 	 2.395587768698690e-01 
0.430000 	 2.221912042671309e-01 	 2.165493165788965e-01 	 2.166765641581265e-01 
0.440000 	 1.987792643544305e-01 	 1.934516614980831e-01 	 1.935835492067472e-01 
0.450000 	 1.751512177589890e-01 	 1.701654255155794e-01 	 1.703019007104274e-01 
0.460000 	 1.513295165189078e-01 	 1.467130728852349e-01 	 1.468540701682877e-01 
0.470000 	 1.273369274950246e-01 	 1.231173191966003e-01 	 1.232627602797882e-01 
0.480000 	 1.031965006849273e-01 	 9.940109856900754e-02 	 9.955089218749820e-02 
0.490000 	 7.893153620128010e-02 	 7.558752982887036e-02 	 7.574157170489863e-02 
0.500000 	 5.456555004965709e-02 	 5.169988181874733e-02 	 5.185805467733106e-02 
0.510000 	 3.012223885307087e-02 	 2.776153799530953e-02 	 2.792371163277858e-02 
0.520000 	 5.625443681092027e-03 	 3.795960480448578e-03 	 3.961991886240135e-03 
0.530000 	 -1.890088684929781e-02 	 -2.017334626474586e-02 	 -2.000361273306021e-02 
0.540000 	 -4.343273402631877e-02 	 -4.412287196960564e-02 	 -4.394960435858816e-02 
0.550000 	 -6.794604686872883e-02 	 -6.802913711150707e-02 	 -6.785251559243524e-02 
0.560000 	 -9.241678013900620e-02 	 -9.186872932561967e-02 	 -9.168894586487975e-02 
0.570000 	 -1.168209323572430e-01 	 -1.156183394923992e-01 	 -1.154355974736554e-01 
0.580000 	 -1.411345836282726e-01 	 -1.392547973316975e-01 	 -1.390693111322413e-01 
0.590000 	 -1.653339330961351e-01 	 -1.627551063373236e-01 	 -1.625671008614175e-01 
0.600000 	 -1.893953358434737e-01 	 -1.860964778924867e-01 	 -1.859061880648923e-01 
0.610000 	 -2.132953390587981e-01 	 -2.092563644146824e-01 	 -2.090640346378944e-01 
0.620000 	 -2.370107173016753e-01 	 -2.322124913881304e-01 	 -2.320183749671245e-01 
0.630000 	 -2.605185067047029e-01 	 -2.549428881526915e-01 	 -2.547472466912334e-01 
0.640000 	 -2.837960379614653e-01 	 -2.774259173301380e-01 	 -2.772290201028829e-01 
0.650000 	 -3.068209679614108e-01 	 -2.996403027815412e-01 	 -2.994424260862872e-01 
0.660000 	 -3.295713099455545e-01 	 -3.215651560032128e-01 	 -3.213665824977463e-01 
0.670000 	 -3.520254620709203e-01 	 -3.431800008828935e-01 	 -3.429810189108879e-01 
0.680000 	 -3.741622342864945e-01 	 -3.644647967525472e-01 	 -3.642656996629460e-01 
0.690000 	 -3.959608734389691e-01 	 -3.853999596890003e-01 	 -3.852010451532346e-01 
0.700000 	 -4.174010865425005e-01 	 -4.059663820285864e-01 	 -4.057679513598469e-01 
0.710000 	 -4.384630621628934e-01 	 -4.261454500767382e-01 	 -4.259478075553494e-01 
0.720000 	 -4.591274898828421e-01 	 -4.459190600079498e-01 	 -4.457225122166804e-01 
0.730000 	 -4.793755778309273e-01 	 -4.652696319655594e-01 	 -4.650744871384517e-01 
0.740000 	 -4.991890682727927e-01 	 -4.841801223842345e-01 	 -4.839866897722610e-01 
0.750000 	 -5.185502512781486e-01 	 -5.026340345707636e-01 	 -5.024426238273072e-01 
0.760000 	 -5.374419764918077e-01 	 -5.206154275906473e-01 	 -5.204263481794829e-01 
0.770000 	 -5.558476630507254e-01 	 -5.381089235189711e-01 	 -5.379224841470814e-01 
0.780000 	 -5.737513077018644e-01 	 -5.550997131240365e-01 	 -5.549162212012495e-01 
0.790000 	 -5.911374911875454e-01 	 -5.715735600611891e-01 	 -5.713933211882676e-01 
0.800000 	 -6.079913829756924e-01 	 -5.875168036621659e-01 	 -5.873401211486271e-01 
0.810000 	 -6.242987444219835e-01 	 -6.029163604120692e-01 	 -6.027435348246628e-01 
0.820000 	 -6.400459304593261e-01 	 -6.177597242117551e-01 	 -6.175910529541859e-01 
0.830000 	 -6.552198899172801e-01 	 -6.320349655280071e-01 	 -6.318707424521605e-01 
0.840000 	 -6.698081645800351e-01 	 -6.457307295373709e-01 	 -6.455712445859830e-01 
0.850000 	 -6.837988870963307e-01 	 -6.588362333719835e-01 	 -6.586817722524037e-01 
0.860000 	 -6.971807778583096e-01 	 -6.713412625771794e-01 	 -6.711921064655912e-01 
0.870000 	 -7.099431409687519e-01 	 -6.832361668911474e-01 	 -6.830925921663618e-01 
0.880000 	 -7.220758594175035e-01 	 -6.945118554564931e-01 	 -6.943741334621907e-01 
0.890000 	 -7.335693895882314e-01 	 -7.051597915723017e-01 	 -7.050281884063908e-01 
0.900000 	 -7.444147552159868e-01 	 -7.151719870932410e-01 	 -7.150467634228106e-01 
0.910000 	 -7.546035409144912e-01 	 -7.245409965794737e-01 	 -7.244224074796550e-01 
0.920000 	 -7.641278853896534e-01 	 -7.332599112977130e-01 	 -7.331482061126249e-01 
0.930000 	 -7.729804744526525e-01 	 -7.413223531697283e-01 	 -7.412177753935590e-01 
0.940000 	 -7.811545339420533e-01 	 -7.487224687600421e-01 	 -7.486252559362272e-01 
0.950000 	 -7.886438226599188e-01 	 -7.554549233895215e-01 	 -7.553653070258989e-01 
0.960000 	 -7.954426254218401e-01 	 -7.615148954561096e-01 	 -7.614331009538793e-01 
0.970000 	 -8.015457463152504e-01 	 -7.668980710381222e-01 	 -7.668243176323982e-01 
0.980000 	 -8.069485022544249e-01 	 -7.716006388493916e-01 	 -7.715351395591169e-01 
0.990000 	 -8.116467169142167e-01 	 -7.756192856091336e-01 	 -7.755622471941240e-01 
1.000000 	 -8.156367151179171e-01 	 -7.789511918827753e-01 	 -7.789028148056699e-01 
1.010000 	 -8.189153177476918e-01 	 -7.815940284431447e-01 	 -7.815545068340684e-01 
1.020000 	 -8.214798372388780e-01 	 -7.835459531944425e-01 	 -7.835154748162229e-01 
1.030000 	 -8.233280737120725e-01 	 -7.848056086942898e-01 	 -7.847843549061253e-01 
1.040000 	 -8.244583117894259e-01 	 -7.853721203019338e-01 	 -7.853602660194688e-01 
1.050000 	 -8.248693181339126e-01 	 -7.852450949733931e-01 	 -7.852428086232321e-01 
1.060000 	 -8.245603397426029e-01 	 -7.844246207169759e-01 	 -7.844320641837494e-01 
1.070000 	 -8.235311030171247e-01 	 -7.829112667152172e-01 	 -7.829285952794066e-01 
1.080000 	 -8.217818136266141e-01 	 -7.807060841118814e-01 	 -7.807334463767100e-01 
1.090000 	 -8.193131571705040e-01 	 -7.778106074552800e-01 	 -7.778481452610881e-01 
1.100000 	 -8.161263006405264e-01 	 -7.742268567817767e-01 	 -7.742747051064173e-01 
1.110000 	 -8.122228946733034e-01 	 -7.699573403160219e-01 	 -7.700156271599420e-01 
1.120000 	 -8.076050765769055e-01 	 -7.650050577571864e-01 	 -7.650739040119937e-01 
1.130000 	 -8.022754741067581e-01 	 -7.593735041132809e-01 	 -7.594530234127412e-01 
1.140000 	 -7.962372099583187e-01 	 -7.530666740385730e-01 	 -7.531569725911367e-01 
1.150000 	 -7.894939069360214e-01 	 -7.460890666221801e-01 	 -7.461902430242985e-01 
1.160000 	 -7.820496937501389e-01 	 -7.384456905691498e-01 	 -7.385578355988149e-01 
1.170000 	 -7.739092113854468e-01 	 -7.301420697087818e-01 	 -7.302652660989035e-01 
1.180000 	 -7.650776199779418e-01 	 -7.211842487586315e-01 	 -7.213185709500547e-01 
1.190000 	 -7.555606061283809e-01 	 -7.115787992666027e-01 	 -7.117243131407690e-01 
1.200000 	 -7.453643905741251e-01 	 -7.013328256478466e-01 	 -7.014895882393135e-01 
1.210000 	 -7.344957361337228e-01 	 -6.904539712278728e-01 	 -6.906220304171187e-01 
1.220000 	 -7.229619558319191e-01 	 -6.789504241984049e-01 	 -6.791298183855764e-01 
1.230000 	 -7.107709211063641e-01 	 -6.668309233881410e-01 	 -6.670216811486325e-01 
1.240000 	 -6.979310699912977e-01 	 -6.541047637467584e-01 	 -6.543069034697532e-01 
1.250000 	 -6.844514151679663e-01 	 -6.407818014373055e-01 	 -6.409953309486545e-01 
1.260000 	 -6.703415517665448e-01 	 -6.268724584296037e-01 	 -6.270973746006685e-01 
1.270000 	 -6.556116647999899e-01 	 -6.123877264855160e-01 	 -6.126240148298544e-01 
1.280000 	 -6.402725361065918e-01 	 -5.973391704259732e-01 	 -5.975868046859999e-01 
1.290000 	 -6.243355506751239e-01 	 -5.817389305695612e-01 	 -5.819978722955658e-01 
1.300000 	 -6.078127022244819e-01 	 -5.655997242333043e-01 	 -5.658699223574564e-01 
1.310000 	 -5.907165979086443e-01 	 -5.489348461880941e-01 	 -5.492162365963031e-01 
1.320000 	 -5.730604620177472e-01 	 -5.317581679640482e-01 	 -5.320506730687737e-01 
1.330000 	 -5.548581385471322e-01 	 -5.140841359049787e-01 	 -5.143876642223004e-01 
1.340000 	 -5.361240925084557e-01 	 -4.959277678761332e-01 	 -4.962422136105855e-01 
1.350000 	 -5.168734098604115e-01 	 -4.773046485354524e-01 	 -4.776298911763015e-01 
1.360000 	 -4.971217959413608e-01 	 -4.582309230857778e-01 	 -4.585668270185694e-01 
1.370000 	 -4.768855722922256e-01 	 -4.387232894337226e-01 	 -4.390697035710437e-01 
1.380000 	 -4.561816717654086e-01 	 -4.187989886902617e-01 	 -4.191557461257482e-01 
1.390000 	 -4.350276318242600e-01 	 -3.984757939584618e-01 	 -3.988427116481313e-01 
1.400000 	 -4.134415859477087e-01 	 -3.777719973650996e-01 	 -3.781488758400952e-01 
1.410000 	 -3.914422530660910e-01 	 -3.567063953051183e-01 	 -3.570930184199168e-01 
1.420000 	 -3.690489249668707e-01 	 -3.352982718808673e-01 	 -3.356944066009228e-01 
1.430000 	 -3.462814516228079e-01 	 -3.135673805317343e-01 	 -3.139727767643994e-01 
1.440000 	 -3.231602244100726e-01 	 -2.915339238639861e-01 	 -2.919483143363757e-01 
1.450000 	 -2.997061571997138e-01 	 -2.692185317052456e-01 	 -2.696416318924806e-01 
1.460000 	 -2.759406653226382e-01 	 -2.466422374228821e-01 	 -2.470737455298736e-01 
1.470000 	 -2.518856424256568e-01 	 -2.238264525605201e-01 	 -2.242660495601297e-01 
1.480000 	 -2.275634352540459e-01 	 -2.007929398616937e-01 	 -2.012402895917331e-01 
1.490000 	 -2.029968164142390e-01 	 -1.775637847642131e-01 	 -1.780185340853308e-01 
1.500000 	 -1.782089551884963e-01 	 -1.541613654628727e-01 	 -1.546231444789233e-01 
1.510000 	 -1.532233864914733e-01 	 -1.306083216515405e-01 	 -1.310767439935382e-01 
1.520000 	 -1.280639780762803e-01 	 -1.069275220682337e-01 	 -1.074021852424754e-01 
1.530000 	 -1.027548961146626e-01 	 -8.314203097833893e-02 	 -8.362251677873914e-02 
1.540000 	 -7.732056929208994e-02 	 -5.927507374151016e-02 	 -5.976094872563083e-02 
1.550000 	 -5.178565157359658e-02 	 -3.535000161682153e-02 	 -3.584081764451279e-02 
1.560000 	 -2.617498380993104e-02 	 -1.139025596833815e-02 	 -1.188555080133809e-02 
1.570000 	 -5.135543657531286e-04 	 1.258066796072271e-02 	 1.208137000044202e-02 
1.580000 	 2.517354103793628e-02 	 3.653925753271989e-02 	 3.603644484861812e-02 
1.590000 	 5.086114006639565e-02 	 6.046201928406866e-02 	 5.995619223799421e-02 
1.600000 	 7.652405489151859e-02 	 8.432551540148717e-02 	 8.381718549769490e-02 
1.610000 	 1.021371134783552e-01 	 1.081063999309565e-01 	 1.075960889554068e-01 
1.620000 	 1.276752008239914e-01 	 1.317814545470430e-01 	 1.312696936666083e-01 
1.630000 	 1.531132999350963e-01 	 1.553276237146594e-01 	 1.548149525412177e-01 
1.640000 	 1.784265323328097e-01 	 1.787220490814297e-01 	 1.782090147061217e-01 
1.650000 	 2.035901978782281e-01 	 2.019421029464801e-01 	 2.014292589496414e-01 
1.660000 	 2.285798137184981e-01 	 2.249654206605882e-01 	 2.244533261030417e-01 
1.670000 	 2.533711521623354e-01 	 2.477699318230614e-01 	 2.472591502245569e-01 
1.680000 	 2.779402773045188e-01 	 2.703338901523156e-01 	 2.698249884629466e-01 
1.690000 	 3.022635802314107e-01 	 2.926359019197415e-01 	 2.921294494901368e-01 
1.700000 	 3.263178126536264e-01 	 3.146549528498869e-01 	 3.141515204058850e-01 
1.710000 	 3.500801188274164e-01 	 3.363704334040777e-01 	 3.358705920314342e-01 
1.720000 	 3.735280656429126e-01 	 3.577621623791558e-01 	 3.572664825236199e-01 
1.730000 	 3.966396707748795e-01 	 3.788104087678451e-01 	 3.783194592556726e-01 
1.740000 	 4.193934288097650e-01 	 3.994959118421856e-01 	 3.990102589258355e-01 
1.750000 	 4.417683352814183e-01 	 4.197998994363187e-01 	 4.193201058697195e-01 
1.760000 	 4.637439085665905e-01 	 4.397041044195025e-01 	 4.392307285668725e-01 
1.770000 	 4.853002096100159e-01 	 4.591907793644204e-01 	 4.587243743461971e-01 
1.780000 	 5.064178594672744e-01 	 4.782427094294855e-01 	 4.777838223084617e-01 
1.790000 	 5.270780546715416e-01 	 4.968432234867971e-01 	 4.963923944970919e-01 
1.800000 	 5.472625804475463e-01 	 5.149762035395754e-01 	 5.145339653605818e-01 
1.810000 	 5.669538218124173e-01 	 5.326260924841787e-01 	 5.321929695611451e-01 
1.820000 	 5.861347726184456e-01 	 5.497779002821273e-01 	 5.493544081945443e-01 
1.830000 	 6.047890426070043e-01 	 5.664172086168507e-01 	 5.660038534953373e-01 
1.840000 	 6.229008625558382e-01 	 5.825301741181046e-01 	 5.821274521100253e-01 
1.850000 	 6.404550876135939e-01 	 5.981035302441370e-01 	 5.977119270277343e-01 
1.860000 	 6.574371989257444e-01 	 6.131245879177153e-01 	 6.127445782641214e-01 
1.870000 	 6.738333036649404e-01 	 6.275812350170539e-01 	 6.272132823991440e-01 
1.880000 	 6.896301335862866e-01 	 6.414619348265261e-01 	 6.411064910732102e-01 
1.890000 	 7.048150422340907e-01 	 6.547557235548297e-01 	 6.544132285490409e-01 
1.900000 	 7.193760009313168e-01 	 6.674522070300385e-01 	 6.671230884483708e-01 
1.910000 	 7.333015936862982e-01 	 6.795415566817635e-01 	 6.792262297734388e-01 
1.920000 	 7.465810111533249e-01 	 6.910145049205075e-01 	 6.907133723231190e-01 
1.930000 	 7.592040437845436e-01 	 7.018623400232993e-01 	 7.015757916125712e-01 
1.940000 	 7.711610743103012e-01 	 7.120769006328821e-01 	 7.118053134035204e-01 
1.950000 	 7.824430696836790e-01 	 7.216505699751807e-01 	 7.213943079497532e-01 
1.960000 	 7.930415726226151e-01 	 7.305762698965401e-01 	 7.303356840592226e-01 
1.970000 	 8.029486928797614e-01 	 7.388474548183803e-01 	 7.386228830703329e-01 
1.980000 	 8.121570983661738e-01 	 7.464581057025137e-01 	 7.462498728356096e-01 
1.990000 	 8.206600062501632e-01 	 7.534027241154720e-01 	 7.532111418010879e-01 
2.000000 	 8.284511741472397e-01 	 7.596763264748645e-01 	 7.595016932644510e-01 
2.010000 	 8.355248915111213e-01 	 7.652744385550719e-01 	 7.651170398892606e-01 
2.020000 	 8.418759713293530e-01 	 7.701930903235399e-01 	 7.700531985466010e-01 
2.030000 	 8.474997422202353e-01 	 7.744288111726049e-01 	 7.743066855491491e-01 
2.040000 	 8.523920410205801e-01 	 7.779786256052166e-01 	 7.778745123361305e-01 
2.050000 	 8.565492059463333e-01 	 7.808400494261462e-01 	 7.807541816608683e-01 
2.060000 	 8.599680704003952e-01 	 7.830110864833255e-01 	 7.829436843256979e-01 
2.070000 	 8.626459574940609e-01 	 7.844902259968848e-01 	 7.844414965019625e-01 
2.080000 	 8.645806753404428e-01 	 7.852764405062647e-01 	 7.852465776656206e-01 
2.090000 	 8.657705131700500e-01 	 7.853691844585051e-01 	 7.853583691717401e-01 
2.100000 	 8.662142383104132e-01 	 7.847683934534782e-01 	 7.847767934838249e-01 
2.110000 	 8.659110940632808e-01 	 7.834744841544529e-01 	 7.835022540665545e-01 
2.120000 	 8.648607985044895e-01 	 7.814883548649864e-01 	 7.815356359431294e-01 
2.130000 	 8.630635442231394e-01 	 7.788113867657301e-01 	 7.788783069110220e-01 
2.140000 	 8.605199990081959e-01 	 7.754454457973597e-01 	 7.755321194025578e-01 
2.150000 	 8.572313074821056e-01 	 7.713928851684850e-01 	 7.714994129694103e-01 
2.160000 	 8.531990936724555e-01 	 7.666565484601071e-01 	 7.667830173628088e-01 
2.170000 	 8.484254645041346e-01 	 7.612397732909734e-01 	 7.613862561740522e-01 
2.180000 	 8.429130141858872e-01 	 7.551463955010687e-01 	 7.553129509928145e-01 
2.190000 	 8.366648294565763e-01 	 7.483807538035006e-01 	 7.485674260337565e-01 
2.200000 	 8.296844956479327e-01 	 7.409476948482135e-01 	 7.411545131751393e-01 
2.210000 	 8.219761035120510e-01 	 7.328525786343373e-01 	 7.330795573465156e-01 
2.220000 	 8.135442567534446e-01 	 7.241012842015789e-01 	 7.243484221961822e-01 
2.230000 	 8.043940801971018e-01 	 7.147002155249443e-01 	 7.149674959629585e-01 
2.240000 	 7.945312285157314e-01 	 7.046563075312666e-01 	 7.049436974710563e-01 
2.250000 	 7.839618954312896e-01 	 6.939770321505839e-01 	 6.942844821613695e-01 
2.260000 	 7.726928232979808e-01 	 6.826704043103897e-01 	 6.829978480674996e-01 
2.270000 	 7.607313129662815e-01 	 6.707449877762427e-01 	 6.710923416402957e-01 
2.280000 	 7.480852338201969e-01 	 6.582099007382188e-01 	 6.585770633206838e-01 
2.290000 	 7.347630338730131e-01 	 6.450748210392877e-01 	 6.454616727571574e-01 
2.300000 	 7.207737498002992e-01 	 6.313499909389549e-01 	 6.317563935615557e-01 
2.310000 	 7.061270167829484e-01 	 6.170462213034981e-01 	 6.174720174947339e-01 
2.320000 	 6.908330780277034e-01 	 6.021748951128995e-01 	 6.026199079724973e-01 
2.330000 	 6.749027938279701e-01 	 5.867479701742059e-01 	 5.872120027817825e-01 
2.340000 	 6.583476500239049e-01 	 5.707779809315794e-01 	 5.712608158975895e-01 
2.350000 	 6.411797657178362e-01 	 5.542780392648022e-01 	 5.547794382926424e-01 
2.360000 	 6.234119000991709e-01 	 5.372618341705049e-01 	 5.377815376342453e-01 
2.370000 	 6.050574582321283e-01 	 5.197436302239432e-01 	 5.202813567663214e-01 
2.380000 	 5.861304956600341e-01 	 5.017382647237851e-01 	 5.022937108792332e-01 
